 #
 # Subroutine ELSEPA. Elastic scattering of electrons and positrons
 #                    by neutral atoms and positive ions
 #
 # Projectile: electron
 # Kinetic energy = 3.70000E+06 eV = 1.35973E+05 a.u.
 #
 # WARNING: High-energy factorization with free-atom DF screening.
 #          Absorption, polarization and exchange corrections are
 #          switched off.
 #          Phase shifts are calculated for the bare nucleus.
 #          Scattering amplitudes are not evaluated.
 #
 # Element:  H,  Z =   1,  atomic weight = 1.00790E+00 g/mol
 #
 # Nuclear model: Fermi distribution
 #                Average radius = 1.07281E-13 cm
 #                Skin thickness = 5.46000E-14 cm
 #
 # Number of electrons =  1
 #
 # Total elastic cross section = 1.10035E-20 cm**2 = 3.92943E-04 a0**2
 # 1st transport cross section = 9.95317E-26 cm**2 = 3.55434E-09 a0**2
 # 2nd transport cross section = 2.87000E-25 cm**2 = 1.02489E-08 a0**2
 #
 #
 # Differential cross section:                       MU=(1-COS(THETA))/2
 #
 #  THETA        MU          DCS          DCS        Sherman      error
 #  (deg)                 (cm**2/sr)   (a0**2/sr)    function
 #----------------------------------------------------------------------
  0.000E+00  0.00000E+00  1.90152E-15  6.79046E+01  0.00000E+00  1.0E-05
  1.000E-04  7.61557E-13  1.90152E-15  6.79044E+01  0.00000E+00  1.0E-05
  1.250E-04  1.18994E-12  1.90151E-15  6.79043E+01  0.00000E+00  1.0E-05
  1.500E-04  1.71346E-12  1.90151E-15  6.79041E+01  0.00000E+00  1.0E-05
  1.750E-04  2.33225E-12  1.90150E-15  6.79040E+01  0.00000E+00  1.0E-05
  2.000E-04  3.04617E-12  1.90150E-15  6.79038E+01  0.00000E+00  1.0E-05
  2.250E-04  3.85530E-12  1.90149E-15  6.79036E+01  0.00000E+00  1.0E-05
  2.500E-04  4.75964E-12  1.90149E-15  6.79033E+01  0.00000E+00  1.0E-05
  2.750E-04  5.75917E-12  1.90148E-15  6.79031E+01  0.00000E+00  1.0E-05
  3.000E-04  6.85391E-12  1.90147E-15  6.79028E+01  0.00000E+00  1.0E-05
  3.250E-04  8.04379E-12  1.90146E-15  6.79025E+01  0.00000E+00  1.0E-05
  3.500E-04  9.32893E-12  1.90145E-15  6.79022E+01  0.00000E+00  1.0E-05
  3.750E-04  1.07092E-11  1.90144E-15  6.79018E+01  0.00000E+00  1.0E-05
  4.000E-04  1.21847E-11  1.90143E-15  6.79014E+01  0.00000E+00  1.0E-05
  4.250E-04  1.37554E-11  1.90142E-15  6.79010E+01  0.00000E+00  1.0E-05
  4.500E-04  1.54213E-11  1.90141E-15  6.79006E+01  0.00000E+00  1.0E-05
  4.750E-04  1.71823E-11  1.90140E-15  6.79002E+01  0.00000E+00  1.0E-05
  5.000E-04  1.90386E-11  1.90138E-15  6.78997E+01  0.00000E+00  1.0E-05
  5.250E-04  2.09900E-11  1.90137E-15  6.78992E+01  0.00000E+00  1.0E-05
  5.500E-04  2.30367E-11  1.90136E-15  6.78987E+01  0.00000E+00  1.0E-05
  5.750E-04  2.51785E-11  1.90134E-15  6.78981E+01  0.00000E+00  1.0E-05
  6.000E-04  2.74156E-11  1.90132E-15  6.78975E+01  0.00000E+00  1.0E-05
  6.250E-04  2.97478E-11  1.90131E-15  6.78969E+01  0.00000E+00  1.0E-05
  6.500E-04  3.21752E-11  1.90129E-15  6.78963E+01  0.00000E+00  1.0E-05
  6.750E-04  3.46979E-11  1.90127E-15  6.78957E+01  0.00000E+00  1.0E-05
  7.000E-04  3.73157E-11  1.90125E-15  6.78950E+01  0.00000E+00  1.0E-05
  7.250E-04  4.00286E-11  1.90123E-15  6.78943E+01  0.00000E+00  1.0E-05
  7.500E-04  4.28368E-11  1.90121E-15  6.78936E+01  0.00000E+00  1.0E-05
  7.750E-04  4.57402E-11  1.90119E-15  6.78928E+01  0.00000E+00  1.0E-05
  8.000E-04  4.87388E-11  1.90117E-15  6.78921E+01  0.00000E+00  1.0E-05
  8.250E-04  5.18325E-11  1.90115E-15  6.78913E+01  0.00000E+00  1.0E-05
  8.500E-04  5.50215E-11  1.90113E-15  6.78905E+01  0.00000E+00  1.0E-05
  8.750E-04  5.83057E-11  1.90110E-15  6.78896E+01  0.00000E+00  1.0E-05
  9.000E-04  6.16850E-11  1.90108E-15  6.78888E+01  0.00000E+00  1.0E-05
  9.250E-04  6.51595E-11  1.90105E-15  6.78879E+01  0.00000E+00  1.0E-05
  9.500E-04  6.87293E-11  1.90103E-15  6.78869E+01  0.00000E+00  1.0E-05
  9.750E-04  7.23943E-11  1.90100E-15  6.78860E+01  0.00000E+00  1.0E-05
  1.000E-03  7.61544E-11  1.90097E-15  6.78850E+01  0.00000E+00  1.0E-05
  1.250E-03  1.18991E-10  1.90067E-15  6.78741E+01  0.00000E+00  1.0E-05
  1.500E-03  1.71347E-10  1.90029E-15  6.78607E+01  0.00000E+00  1.0E-05
  1.750E-03  2.33223E-10  1.89985E-15  6.78449E+01  0.00000E+00  1.0E-05
  2.000E-03  3.04617E-10  1.89934E-15  6.78266E+01  0.00000E+00  1.0E-05
  2.250E-03  3.85531E-10  1.89876E-15  6.78059E+01  0.00000E+00  1.0E-05
  2.500E-03  4.75965E-10  1.89811E-15  6.77828E+01  0.00000E+00  1.0E-05
  2.750E-03  5.75917E-10  1.89740E-15  6.77573E+01  0.00000E+00  1.0E-05
  3.000E-03  6.85389E-10  1.89662E-15  6.77294E+01  0.00000E+00  1.0E-05
  3.250E-03  8.04380E-10  1.89577E-15  6.76990E+01  0.00000E+00  1.0E-05
  3.500E-03  9.32891E-10  1.89485E-15  6.76663E+01  0.00000E+00  1.0E-05
  3.750E-03  1.07092E-09  1.89386E-15  6.76311E+01  0.00000E+00  1.0E-05
  4.000E-03  1.21847E-09  1.89281E-15  6.75936E+01  0.00000E+00  1.0E-05
  4.250E-03  1.37554E-09  1.89170E-15  6.75537E+01  0.00000E+00  1.0E-05
  4.500E-03  1.54213E-09  1.89051E-15  6.75113E+01  0.00000E+00  1.0E-05
  4.750E-03  1.71823E-09  1.88926E-15  6.74666E+01  0.00000E+00  1.0E-05
  5.000E-03  1.90386E-09  1.88794E-15  6.74195E+01  0.00000E+00  1.0E-05
  5.250E-03  2.09900E-09  1.88655E-15  6.73701E+01  0.00000E+00  1.0E-05
  5.500E-03  2.30367E-09  1.88510E-15  6.73183E+01  0.00000E+00  1.0E-05
  5.750E-03  2.51785E-09  1.88359E-15  6.72641E+01  0.00000E+00  1.0E-05
  6.000E-03  2.74156E-09  1.88201E-15  6.72077E+01  0.00000E+00  1.0E-05
  6.250E-03  2.97478E-09  1.88036E-15  6.71488E+01  0.00000E+00  1.0E-05
  6.500E-03  3.21752E-09  1.87865E-15  6.70877E+01  0.00000E+00  1.0E-05
  6.750E-03  3.46978E-09  1.87687E-15  6.70243E+01  0.00000E+00  1.0E-05
  7.000E-03  3.73156E-09  1.87503E-15  6.69585E+01  0.00000E+00  1.0E-05
  7.250E-03  4.00286E-09  1.87312E-15  6.68904E+01  0.00000E+00  1.0E-05
  7.500E-03  4.28368E-09  1.87115E-15  6.68201E+01  0.00000E+00  1.0E-05
  7.750E-03  4.57402E-09  1.86912E-15  6.67475E+01  0.00000E+00  1.0E-05
  8.000E-03  4.87388E-09  1.86702E-15  6.66725E+01  0.00000E+00  1.0E-05
  8.250E-03  5.18326E-09  1.86486E-15  6.65954E+01  0.00000E+00  1.0E-05
  8.500E-03  5.50215E-09  1.86264E-15  6.65162E+01  0.00000E+00  1.0E-05
  8.750E-03  5.83057E-09  1.86035E-15  6.64343E+01  0.00000E+00  1.0E-05
  9.000E-03  6.16850E-09  1.85800E-15  6.63505E+01  0.00000E+00  1.0E-05
  9.250E-03  6.51596E-09  1.85560E-15  6.62646E+01  0.00000E+00  1.0E-05
  9.500E-03  6.87293E-09  1.85312E-15  6.61763E+01  0.00000E+00  1.0E-05
  9.750E-03  7.23942E-09  1.85059E-15  6.60857E+01  0.00000E+00  1.0E-05
  1.000E-02  7.61544E-09  1.84800E-15  6.59932E+01  0.00000E+00  1.0E-05
  1.250E-02  1.18991E-08  1.81881E-15  6.49508E+01  0.00000E+00  1.0E-05
  1.500E-02  1.71347E-08  1.78399E-15  6.37075E+01  0.00000E+00  1.0E-05
  1.750E-02  2.33223E-08  1.74403E-15  6.22805E+01  0.00000E+00  1.0E-05
  2.000E-02  3.04617E-08  1.69946E-15  6.06887E+01  0.00000E+00  1.0E-05
  2.250E-02  3.85531E-08  1.65083E-15  5.89522E+01  0.00000E+00  1.0E-05
  2.500E-02  4.75965E-08  1.59875E-15  5.70924E+01  0.00000E+00  1.0E-05
  2.750E-02  5.75917E-08  1.54381E-15  5.51305E+01  0.00000E+00  1.0E-05
  3.000E-02  6.85389E-08  1.48662E-15  5.30881E+01  0.00000E+00  1.0E-05
  3.250E-02  8.04380E-08  1.42775E-15  5.09860E+01  0.00000E+00  1.0E-05
  3.500E-02  9.32891E-08  1.36590E-15  4.87773E+01  0.00000E+00  1.0E-05
  3.750E-02  1.07092E-07  1.30283E-15  4.65250E+01  0.00000E+00  1.0E-05
  4.000E-02  1.21847E-07  1.24285E-15  4.43829E+01  0.00000E+00  1.0E-05
  4.250E-02  1.37554E-07  1.18612E-15  4.23571E+01  0.00000E+00  1.0E-05
  4.500E-02  1.54213E-07  1.12303E-15  4.01042E+01  0.00000E+00  1.0E-05
  4.750E-02  1.71823E-07  1.06403E-15  3.79973E+01  0.00000E+00  1.0E-05
  5.000E-02  1.90386E-07  1.00911E-15  3.60360E+01  0.00000E+00  1.0E-05
  5.250E-02  2.09900E-07  9.53088E-16  3.40354E+01  0.00000E+00  1.0E-05
  5.500E-02  2.30367E-07  8.97969E-16  3.20671E+01  0.00000E+00  1.0E-05
  5.750E-02  2.51785E-07  8.47166E-16  3.02529E+01  0.00000E+00  1.0E-05
  6.000E-02  2.74156E-07  7.99112E-16  2.85368E+01  0.00000E+00  1.0E-05
  6.250E-02  2.97478E-07  7.49688E-16  2.67718E+01  0.00000E+00  1.0E-05
  6.500E-02  3.21752E-07  7.04399E-16  2.51546E+01  0.00000E+00  1.0E-05
  6.750E-02  3.46978E-07  6.62899E-16  2.36726E+01  0.00000E+00  1.0E-05
  7.000E-02  3.73156E-07  6.21084E-16  2.21793E+01  0.00000E+00  1.0E-05
  7.250E-02  4.00286E-07  5.81880E-16  2.07793E+01  0.00000E+00  1.0E-05
  7.500E-02  4.28368E-07  5.46045E-16  1.94996E+01  0.00000E+00  1.0E-05
  7.750E-02  4.57402E-07  5.11946E-16  1.82819E+01  0.00000E+00  1.0E-05
  8.000E-02  4.87388E-07  4.78769E-16  1.70971E+01  0.00000E+00  1.0E-05
  8.250E-02  5.18325E-07  4.48465E-16  1.60150E+01  0.00000E+00  1.0E-05
  8.500E-02  5.50215E-07  4.20758E-16  1.50255E+01  0.00000E+00  1.0E-05
  8.750E-02  5.83057E-07  3.93195E-16  1.40413E+01  0.00000E+00  1.0E-05
  9.000E-02  6.16850E-07  3.67967E-16  1.31404E+01  0.00000E+00  1.0E-05
  9.250E-02  6.51596E-07  3.44888E-16  1.23162E+01  0.00000E+00  1.0E-05
  9.500E-02  6.87293E-07  3.22868E-16  1.15298E+01  0.00000E+00  1.0E-05
  9.750E-02  7.23942E-07  3.02098E-16  1.07881E+01  0.00000E+00  1.0E-05
  1.000E-01  7.61543E-07  2.83072E-16  1.01087E+01  0.00000E+00  1.0E-05
  1.250E-01  1.18991E-06  1.49719E-16  5.34655E+00  0.00000E+00  1.0E-05
  1.500E-01  1.71347E-06  8.23351E-17  2.94024E+00  0.00000E+00  1.0E-05
  1.750E-01  2.33223E-06  4.70027E-17  1.67850E+00  0.00000E+00  1.0E-05
  2.000E-01  3.04617E-06  2.85963E-17  1.02119E+00  0.00000E+00  1.0E-05
  2.250E-01  3.85531E-06  1.83211E-17  6.54258E-01  0.00000E+00  1.0E-05
  2.500E-01  4.75964E-06  1.22479E-17  4.37380E-01  0.00000E+00  1.0E-05
  2.750E-01  5.75916E-06  8.48326E-18  3.02943E-01  0.00000E+00  1.0E-05
  3.000E-01  6.85388E-06  6.05419E-18  2.16199E-01  0.00000E+00  1.0E-05
  3.250E-01  8.04378E-06  4.43244E-18  1.58285E-01  0.00000E+00  1.0E-05
  3.500E-01  9.32888E-06  3.31741E-18  1.18467E-01  0.00000E+00  1.0E-05
  3.750E-01  1.07092E-05  2.53099E-18  9.03832E-02  0.00000E+00  1.0E-05
  4.000E-01  1.21846E-05  1.96380E-18  7.01287E-02  0.00000E+00  1.0E-05
  4.250E-01  1.37553E-05  1.54661E-18  5.52304E-02  0.00000E+00  1.0E-05
  4.500E-01  1.54212E-05  1.23432E-18  4.40783E-02  0.00000E+00  1.0E-05
  4.750E-01  1.71822E-05  9.96874E-19  3.55990E-02  0.00000E+00  1.0E-05
  5.000E-01  1.90385E-05  8.13781E-19  2.90606E-02  0.00000E+00  1.0E-05
  5.250E-01  2.09899E-05  6.70793E-19  2.39545E-02  0.00000E+00  1.0E-05
  5.500E-01  2.30365E-05  5.57831E-19  1.99205E-02  0.00000E+00  1.0E-05
  5.750E-01  2.51783E-05  4.67647E-19  1.67000E-02  0.00000E+00  1.0E-05
  6.000E-01  2.74153E-05  3.94951E-19  1.41039E-02  0.00000E+00  1.0E-05
  6.250E-01  2.97475E-05  3.35832E-19  1.19928E-02  0.00000E+00  1.0E-05
  6.500E-01  3.21749E-05  2.87360E-19  1.02618E-02  0.00000E+00  1.0E-05
  6.750E-01  3.46974E-05  2.47318E-19  8.83189E-03  0.00000E+00  1.0E-05
  7.000E-01  3.73152E-05  2.14008E-19  7.64235E-03  0.00000E+00  1.0E-05
  7.250E-01  4.00281E-05  1.86116E-19  6.64634E-03  0.00000E+00  1.0E-05
  7.500E-01  4.28362E-05  1.62621E-19  5.80730E-03  0.00000E+00  1.0E-05
  7.750E-01  4.57395E-05  1.42716E-19  5.09648E-03  0.00000E+00  1.0E-05
  8.000E-01  4.87380E-05  1.25763E-19  4.49109E-03  0.00000E+00  1.0E-05
  8.250E-01  5.18317E-05  1.11253E-19  3.97292E-03  0.00000E+00  1.0E-05
  8.500E-01  5.50205E-05  9.87751E-20  3.52732E-03  0.00000E+00  1.0E-05
  8.750E-01  5.83045E-05  8.79975E-20  3.14245E-03  0.00000E+00  1.0E-05
  9.000E-01  6.16838E-05  7.86498E-20  2.80863E-03  0.00000E+00  1.0E-05
  9.250E-01  6.51582E-05  7.05103E-20  2.51797E-03  0.00000E+00  1.0E-05
  9.500E-01  6.87277E-05  6.33966E-20  2.26393E-03  0.00000E+00  1.0E-05
  9.750E-01  7.23925E-05  5.71573E-20  2.04112E-03  0.00000E+00  1.0E-05
  1.000E+00  7.61524E-05  5.16667E-20  1.84505E-03  0.00000E+00  1.0E-05
  1.100E+00  9.21439E-05  3.53221E-20  1.26138E-03  0.00000E+00  1.0E-05
  1.200E+00  1.09658E-04  2.49577E-20  8.91256E-04  0.00000E+00  1.0E-05
  1.300E+00  1.28695E-04  1.81280E-20  6.47363E-04  0.00000E+00  3.3E-04
  1.400E+00  1.49255E-04  1.34854E-20  4.81572E-04  0.00000E+00  1.0E-05
  1.500E+00  1.71338E-04  1.02371E-20  3.65572E-04  0.00000E+00  1.0E-05
  1.600E+00  1.94942E-04  7.91039E-21  2.82485E-04  0.00000E+00  1.0E-05
  1.700E+00  2.20070E-04  6.20867E-21  2.21716E-04  0.00000E+00  1.0E-05
  1.800E+00  2.46720E-04  4.93970E-21  1.76400E-04  0.00000E+00  7.3E-04
  1.900E+00  2.74892E-04  3.97968E-21  1.42117E-04  0.00000E+00  4.9E-05
  2.000E+00  3.04586E-04  3.24197E-21  1.15773E-04  0.00000E+00  5.1E-04
  2.100E+00  3.35803E-04  2.66754E-21  9.52595E-05  0.00000E+00  7.9E-04
  2.200E+00  3.68542E-04  2.21484E-21  7.90934E-05  0.00000E+00  8.1E-04
  2.300E+00  4.02802E-04  1.85426E-21  6.62167E-05  0.00000E+00  6.2E-04
  2.400E+00  4.38585E-04  1.56412E-21  5.58558E-05  0.00000E+00  3.2E-04
  2.500E+00  4.75889E-04  1.32859E-21  4.74449E-05  0.00000E+00  3.7E-05
  2.600E+00  5.14715E-04  1.13576E-21  4.05589E-05  0.00000E+00  3.0E-04
  2.700E+00  5.55063E-04  9.76681E-22  3.48779E-05  0.00000E+00  4.4E-04
  2.800E+00  5.96931E-04  8.44504E-22  3.01578E-05  0.00000E+00  4.4E-04
  2.900E+00  6.40321E-04  7.33941E-22  2.62095E-05  0.00000E+00  3.3E-04
  3.000E+00  6.85233E-04  6.40899E-22  2.28869E-05  0.00000E+00  1.6E-04
  3.100E+00  7.31665E-04  5.62140E-22  2.00744E-05  0.00000E+00  4.8E-05
  3.200E+00  7.79618E-04  4.95117E-22  1.76809E-05  0.00000E+00  2.0E-04
  3.300E+00  8.29092E-04  4.37791E-22  1.56338E-05  0.00000E+00  2.7E-04
  3.400E+00  8.80086E-04  3.88525E-22  1.38745E-05  0.00000E+00  2.7E-04
  3.500E+00  9.32601E-04  3.46000E-22  1.23559E-05  0.00000E+00  2.0E-04
  3.600E+00  9.86636E-04  3.09134E-22  1.10394E-05  0.00000E+00  8.6E-05
  3.700E+00  1.04219E-03  2.77052E-22  9.89370E-06  0.00000E+00  4.7E-05
  3.800E+00  1.09927E-03  2.49024E-22  8.89283E-06  0.00000E+00  1.4E-04
  3.900E+00  1.15786E-03  2.24453E-22  8.01537E-06  0.00000E+00  1.9E-04
  4.000E+00  1.21797E-03  2.02839E-22  7.24352E-06  0.00000E+00  1.8E-04
  4.100E+00  1.27961E-03  1.83765E-22  6.56235E-06  0.00000E+00  1.3E-04
  4.200E+00  1.34276E-03  1.66881E-22  5.95942E-06  0.00000E+00  4.8E-05
  4.300E+00  1.40743E-03  1.51892E-22  5.42415E-06  0.00000E+00  4.4E-05
  4.400E+00  1.47362E-03  1.38548E-22  4.94766E-06  0.00000E+00  1.1E-04
  4.500E+00  1.54133E-03  1.26639E-22  4.52235E-06  0.00000E+00  1.3E-04
  4.600E+00  1.61056E-03  1.15981E-22  4.14176E-06  0.00000E+00  1.2E-04
  4.700E+00  1.68131E-03  1.06422E-22  3.80039E-06  0.00000E+00  8.4E-05
  4.800E+00  1.75357E-03  9.78270E-23  3.49347E-06  0.00000E+00  2.7E-05
  4.900E+00  1.82735E-03  9.00827E-23  3.21691E-06  0.00000E+00  4.0E-05
  5.000E+00  1.90265E-03  8.30896E-23  2.96718E-06  0.00000E+00  8.2E-05
  5.100E+00  1.97947E-03  7.67621E-23  2.74122E-06  0.00000E+00  9.8E-05
  5.200E+00  2.05780E-03  7.10255E-23  2.53637E-06  0.00000E+00  8.9E-05
  5.300E+00  2.13765E-03  6.58148E-23  2.35029E-06  0.00000E+00  5.8E-05
  5.400E+00  2.21902E-03  6.10734E-23  2.18097E-06  0.00000E+00  1.4E-05
  5.500E+00  2.30190E-03  5.67512E-23  2.02662E-06  0.00000E+00  3.5E-05
  5.600E+00  2.38630E-03  5.28047E-23  1.88569E-06  0.00000E+00  6.5E-05
  5.700E+00  2.47222E-03  4.91953E-23  1.75680E-06  0.00000E+00  7.5E-05
  5.800E+00  2.55965E-03  4.58890E-23  1.63873E-06  0.00000E+00  6.6E-05
  5.900E+00  2.64859E-03  4.28559E-23  1.53041E-06  0.00000E+00  4.1E-05
  6.000E+00  2.73905E-03  4.00692E-23  1.43090E-06  0.00000E+00  6.4E-06
  6.100E+00  2.83103E-03  3.75054E-23  1.33934E-06  0.00000E+00  3.2E-05
  6.200E+00  2.92452E-03  3.51433E-23  1.25499E-06  0.00000E+00  5.3E-05
  6.300E+00  3.01952E-03  3.29643E-23  1.17718E-06  0.00000E+00  5.8E-05
  6.400E+00  3.11604E-03  3.09515E-23  1.10530E-06  0.00000E+00  5.0E-05
  6.500E+00  3.21407E-03  2.90900E-23  1.03882E-06  0.00000E+00  2.9E-05
  6.600E+00  3.31362E-03  2.73664E-23  9.77272E-07  0.00000E+00  3.5E-06
  6.700E+00  3.41468E-03  2.57685E-23  9.20209E-07  0.00000E+00  2.8E-05
  6.800E+00  3.51725E-03  2.42855E-23  8.67252E-07  0.00000E+00  4.4E-05
  6.900E+00  3.62133E-03  2.29077E-23  8.18048E-07  0.00000E+00  4.6E-05
  7.000E+00  3.72692E-03  2.16262E-23  7.72284E-07  0.00000E+00  3.8E-05
  7.100E+00  3.83403E-03  2.04330E-23  7.29676E-07  0.00000E+00  2.1E-05
  7.200E+00  3.94265E-03  1.93210E-23  6.89965E-07  0.00000E+00  6.1E-06
  7.300E+00  4.05278E-03  1.82836E-23  6.52919E-07  0.00000E+00  2.5E-05
  7.400E+00  4.16442E-03  1.73149E-23  6.18325E-07  0.00000E+00  3.6E-05
  7.500E+00  4.27757E-03  1.64094E-23  5.85991E-07  0.00000E+00  3.8E-05
  7.600E+00  4.39223E-03  1.55624E-23  5.55744E-07  0.00000E+00  3.0E-05
  7.700E+00  4.50840E-03  1.47693E-23  5.27422E-07  0.00000E+00  1.5E-05
  7.800E+00  4.62608E-03  1.40261E-23  5.00881E-07  0.00000E+00  7.6E-06
  7.900E+00  4.74527E-03  1.33290E-23  4.75989E-07  0.00000E+00  2.3E-05
  8.000E+00  4.86597E-03  1.26747E-23  4.52623E-07  0.00000E+00  3.1E-05
  8.100E+00  4.98817E-03  1.20601E-23  4.30673E-07  0.00000E+00  3.1E-05
  8.200E+00  5.11188E-03  1.14822E-23  4.10037E-07  0.00000E+00  2.3E-05
  8.300E+00  5.23711E-03  1.09385E-23  3.90622E-07  0.00000E+00  1.0E-05
  8.400E+00  5.36383E-03  1.04267E-23  3.72343E-07  0.00000E+00  8.4E-06
  8.500E+00  5.49207E-03  9.94436E-24  3.55119E-07  0.00000E+00  2.0E-05
  8.600E+00  5.62181E-03  9.48961E-24  3.38880E-07  0.00000E+00  2.6E-05
  8.700E+00  5.75306E-03  9.06056E-24  3.23558E-07  0.00000E+00  2.5E-05
  8.800E+00  5.88581E-03  8.65547E-24  3.09093E-07  0.00000E+00  1.9E-05
  8.900E+00  6.02007E-03  8.27276E-24  2.95426E-07  0.00000E+00  7.0E-06
  9.000E+00  6.15583E-03  7.91097E-24  2.82506E-07  0.00000E+00  8.8E-06
  9.100E+00  6.29310E-03  7.56872E-24  2.70284E-07  0.00000E+00  1.8E-05
  9.200E+00  6.43187E-03  7.24478E-24  2.58716E-07  0.00000E+00  2.2E-05
  9.300E+00  6.57214E-03  6.93798E-24  2.47760E-07  0.00000E+00  2.1E-05
  9.400E+00  6.71392E-03  6.64724E-24  2.37377E-07  0.00000E+00  1.5E-05
  9.500E+00  6.85720E-03  6.37157E-24  2.27533E-07  0.00000E+00  4.5E-06
  9.600E+00  7.00198E-03  6.11003E-24  2.18193E-07  0.00000E+00  9.0E-06
  9.700E+00  7.14827E-03  5.86176E-24  2.09327E-07  0.00000E+00  1.7E-05
  9.800E+00  7.29605E-03  5.62598E-24  2.00907E-07  0.00000E+00  1.9E-05
  9.900E+00  7.44534E-03  5.40192E-24  1.92906E-07  0.00000E+00  1.8E-05
  1.000E+01  7.59612E-03  5.18890E-24  1.85299E-07  0.00000E+00  1.2E-05
  1.025E+01  7.97965E-03  4.70051E-24  1.67858E-07  0.00000E+00  1.4E-05
  1.050E+01  8.37255E-03  4.26822E-24  1.52421E-07  0.00000E+00  1.5E-05
  1.075E+01  8.77480E-03  3.88448E-24  1.38717E-07  0.00000E+00  1.5E-05
  1.100E+01  9.18641E-03  3.54288E-24  1.26519E-07  0.00000E+00  1.4E-05
  1.125E+01  9.60736E-03  3.23799E-24  1.15631E-07  0.00000E+00  1.4E-05
  1.150E+01  1.00376E-02  2.96519E-24  1.05889E-07  0.00000E+00  1.2E-05
  1.175E+01  1.04773E-02  2.72050E-24  9.71508E-08  0.00000E+00  1.0E-05
  1.200E+01  1.09262E-02  2.50052E-24  8.92951E-08  0.00000E+00  8.1E-06
  1.225E+01  1.13844E-02  2.30231E-24  8.22170E-08  0.00000E+00  5.7E-06
  1.250E+01  1.18520E-02  2.12334E-24  7.58259E-08  0.00000E+00  3.3E-06
  1.275E+01  1.23288E-02  1.96141E-24  7.00434E-08  0.00000E+00  1.0E-06
  1.300E+01  1.28150E-02  1.81462E-24  6.48012E-08  0.00000E+00  3.2E-06
  1.325E+01  1.33104E-02  1.68129E-24  6.00400E-08  0.00000E+00  4.9E-06
  1.350E+01  1.38150E-02  1.55997E-24  5.57076E-08  0.00000E+00  6.3E-06
  1.375E+01  1.43290E-02  1.44939E-24  5.17587E-08  0.00000E+00  7.2E-06
  1.400E+01  1.48521E-02  1.34843E-24  4.81532E-08  0.00000E+00  7.6E-06
  1.425E+01  1.53845E-02  1.25609E-24  4.48558E-08  0.00000E+00  7.6E-06
  1.450E+01  1.59262E-02  1.17152E-24  4.18356E-08  0.00000E+00  7.3E-06
  1.475E+01  1.64770E-02  1.09393E-24  3.90651E-08  0.00000E+00  6.9E-06
  1.500E+01  1.70371E-02  1.02266E-24  3.65198E-08  0.00000E+00  6.2E-06
  1.525E+01  1.76063E-02  9.57089E-25  3.41783E-08  0.00000E+00  5.2E-06
